Station:         SMT
Latitude:        72.5797
Longitude:       -38.4604
Altitude:        3216.5
SW version:      MW41 2.8.0

Start time:      8/1/2019 11:15:18 AM

    Time	  Height	Pressure	    Temp	Humidity	    WDir	  WSpeed	     Lat	     Lon
     0.0	    3216	   686.9	    -9.4	    92.6	   166.0	     2.8	 72.5797	-38.4604
    23.0	    3229	   686.0	    -1.9	    29.7	   216.0	     4.5	 72.5818	-38.4576
    24.0	    3235	   685.4	    -1.9	    29.4	   216.1	     4.5	 72.5818	-38.4574
    25.0	    3244	   684.9	    -1.9	    29.1	   216.3	     4.5	 72.5818	-38.4573
    26.0	    3249	   684.3	    -1.9	    28.5	   216.5	     4.5	 72.5818	-38.4572
    27.0	    3258	   683.8	    -1.8	    27.8	   216.7	     4.5	 72.5819	-38.4571
    28.0	    3261	   683.3	    -1.8	    27.2	   217.0	     4.5	 72.5819	-38.4570
    29.0	    3266	   682.9	    -1.8	    26.4	   217.3	     4.6	 72.5820	-38.4570
    30.0	    3272	   682.4	    -1.8	    25.4	   217.7	     4.6	 72.5820	-38.4569
    31.0	    3277	   682.0	    -1.7	    24.1	   218.1	     4.6	 72.5821	-38.4569
    32.0	    3282	   681.6	    -1.7	    22.5	   218.5	     4.6	 72.5821	-38.4569
    33.0	    3284	   681.2	    -1.6	    21.0	   219.0	     4.6	 72.5822	-38.4568
    34.0	    3289	   680.7	    -1.5	    20.1	   219.6	     4.7	 72.5822	-38.4567
    35.0	    3294	   680.3	    -1.4	    19.9	   220.2	     4.7	 72.5822	-38.4566
    36.0	    3298	   679.8	    -1.4	    20.4	   220.9	     4.7	 72.5823	-38.4565
    37.0	    3305	   679.3	    -1.4	    20.9	   221.6	     4.8	 72.5823	-38.4564
    38.0	    3312	   678.8	    -1.4	    21.3	   222.3	     4.8	 72.5823	-38.4564
    39.0	    3319	   678.2	    -1.4	    21.5	   223.1	     4.8	 72.5824	-38.4563
    40.0	    3330	   677.7	    -1.5	    21.5	   223.8	     4.9	 72.5824	-38.4563
    41.0	    3333	   677.1	    -1.5	    21.4	   224.6	     4.9	 72.5824	-38.4562
    42.0	    3339	   676.6	    -1.5	    21.3	   225.3	     4.9	 72.5824	-38.4561
    43.0	    3347	   676.1	    -1.6	    21.3	   226.1	     5.0	 72.5825	-38.4559
    44.0	    3353	   675.6	    -1.6	    21.4	   226.8	     5.0	 72.5825	-38.4557
    45.0	    3356	   675.2	    -1.6	    21.5	   227.5	     5.0	 72.5825	-38.4555
    46.0	    3359	   674.7	    -1.6	    21.7	   228.2	     5.1	 72.5826	-38.4553
    47.0	    3366	   674.3	    -1.7	    21.9	   228.9	     5.1	 72.5826	-38.4552
    48.0	    3369	   673.9	    -1.7	    22.0	   229.5	     5.1	 72.5826	-38.4551
    49.0	    3374	   673.4	    -1.7	    22.0	   230.0	     5.1	 72.5826	-38.4551
    50.0	    3381	   673.0	    -1.8	    21.6	   230.5	     5.1	 72.5827	-38.4550
    51.0	    3386	   672.5	    -1.8	    20.9	   230.9	     5.1	 72.5827	-38.4549
    52.0	    3393	   672.1	    -1.8	    20.1	   231.3	     5.1	 72.5827	-38.4548
    53.0	    3398	   671.6	    -1.8	    19.7	   231.6	     5.1	 72.5827	-38.4546
    54.0	    3406	   671.2	    -1.8	    19.6	   231.9	     5.1	 72.5828	-38.4544
    55.0	    3410	   670.7	    -1.8	    19.8	   232.0	     5.1	 72.5828	-38.4542
    56.0	    3413	   670.3	    -1.8	    20.3	   232.2	     5.1	 72.5828	-38.4541
    57.0	    3417	   669.9	    -1.8	    20.8	   232.2	     5.1	 72.5828	-38.4539
    58.0	    3421	   669.5	    -1.8	    21.4	   232.3	     5.1	 72.5829	-38.4538
    59.0	    3426	   669.1	    -1.9	    21.9	   232.2	     5.0	 72.5829	-38.4538
    60.0	    3432	   668.7	    -1.9	    22.4	   232.2	     5.0	 72.5829	-38.4536
    61.0	    3438	   668.3	    -1.9	    22.7	   232.0	     5.0	 72.5830	-38.4535
    62.0	    3443	   667.8	    -1.9	    22.7	   231.9	     4.9	 72.5830	-38.4534
    63.0	    3448	   667.4	    -1.9	    22.2	   231.7	     4.9	 72.5830	-38.4532
    64.0	    3453	   667.0	    -1.9	    21.2	   231.4	     4.8	 72.5831	-38.4532
    65.0	    3457	   666.5	    -1.9	    20.5	   231.1	     4.8	 72.5831	-38.4531
    66.0	    3462	   666.1	    -1.9	    20.0	   230.8	     4.7	 72.5831	-38.4530
    67.0	    3468	   665.6	    -1.9	    19.8	   230.5	     4.7	 72.5832	-38.4529
    68.0	    3475	   665.2	    -2.0	    19.7	   230.1	     4.6	 72.5832	-38.4527
    69.0	    3479	   664.7	    -2.0	    19.6	   229.8	     4.6	 72.5832	-38.4526
    70.0	    3485	   664.3	    -2.1	    19.5	   229.4	     4.5	 72.5832	-38.4525
    71.0	    3490	   663.8	    -2.1	    19.5	   229.0	     4.5	 72.5832	-38.4524
    72.0	    3495	   663.4	    -2.1	    19.6	   228.6	     4.4	 72.5833	-38.4523
    73.0	    3501	   663.0	    -2.2	    19.7	   228.2	     4.4	 72.5833	-38.4522
    74.0	    3506	   662.5	    -2.2	    19.7	   227.9	     4.3	 72.5833	-38.4521
    75.0	    3510	   662.1	    -2.3	    19.8	   227.5	     4.3	 72.5833	-38.4520
    76.0	    3514	   661.6	    -2.3	    19.9	   227.1	     4.2	 72.5833	-38.4519
    77.0	    3519	   661.2	    -2.4	    20.1	   226.8	     4.2	 72.5834	-38.4518
    78.0	    3527	   660.7	    -2.4	    20.2	   226.5	     4.2	 72.5834	-38.4517
    79.0	    3534	   660.2	    -2.5	    20.5	   226.3	     4.1	 72.5834	-38.4516
    80.0	    3542	   659.7	    -2.6	    20.7	   226.0	     4.1	 72.5834	-38.4516
    81.0	    3547	   659.2	    -2.6	    21.0	   225.8	     4.1	 72.5834	-38.4516
    82.0	    3553	   658.7	    -2.7	    21.3	   225.6	     4.1	 72.5835	-38.4515
    83.0	    3558	   658.3	    -2.7	    21.5	   225.4	     4.1	 72.5835	-38.4515
    84.0	    3562	   657.8	    -2.7	    21.8	   225.2	     4.0	 72.5836	-38.4514
    85.0	    3567	   657.4	    -2.8	    21.9	   225.1	     4.0	 72.5836	-38.4513
    86.0	    3571	   657.0	    -2.8	    22.1	   225.0	     4.0	 72.5836	-38.4512
    87.0	    3576	   656.6	    -2.8	    22.4	   225.0	     4.0	 72.5836	-38.4511
    88.0	    3583	   656.2	    -2.9	    22.6	   224.9	     4.0	 72.5837	-38.4509
    89.0	    3587	   655.7	    -2.9	    22.9	   224.9	     4.0	 72.5837	-38.4508
    90.0	    3593	   655.3	    -2.9	    23.1	   225.0	     4.0	 72.5837	-38.4508
    91.0	    3598	   654.9	    -3.0	    23.3	   225.0	     4.1	 72.5837	-38.4507
    92.0	    3603	   654.5	    -3.0	    23.3	   225.0	     4.1	 72.5838	-38.4506
    93.0	    3609	   654.0	    -3.0	    23.3	   225.1	     4.1	 72.5838	-38.4505
    94.0	    3612	   653.6	    -3.0	    23.2	   225.2	     4.1	 72.5838	-38.4504
    95.0	    3618	   653.2	    -3.0	    23.0	   225.2	     4.1	 72.5838	-38.4504
    96.0	    3623	   652.8	    -3.0	    22.9	   225.3	     4.2	 72.5838	-38.4503
    97.0	    3628	   652.4	    -2.9	    23.3	   225.3	     4.2	 72.5839	-38.4503
    98.0	    3632	   652.0	    -2.9	    24.2	   225.4	     4.2	 72.5839	-38.4502
    99.0	    3636	   651.6	    -2.9	    25.6	   225.4	     4.3	 72.5839	-38.4501
   100.0	    3641	   651.2	    -2.9	    27.6	   225.4	     4.3	 72.5839	-38.4500
   101.0	    3647	   650.8	    -2.9	    30.1	   225.3	     4.4	 72.5840	-38.4499
   102.0	    3652	   650.4	    -2.9	    32.5	   225.3	     4.4	 72.5840	-38.4498
   103.0	    3657	   650.0	    -2.9	    33.7	   225.2	     4.4	 72.5840	-38.4497
   104.0	    3661	   649.6	    -3.0	    34.0	   225.1	     4.5	 72.5841	-38.4496
   105.0	    3668	   649.2	    -3.0	    34.0	   225.0	     4.5	 72.5841	-38.4495
   106.0	    3671	   648.8	    -3.1	    34.1	   224.8	     4.5	 72.5841	-38.4494
   107.0	    3675	   648.4	    -3.1	    34.2	   224.6	     4.6	 72.5841	-38.4493
   108.0	    3680	   648.0	    -3.1	    34.4	   224.4	     4.6	 72.5841	-38.4491
   109.0	    3685	   647.6	    -3.2	    34.6	   224.2	     4.6	 72.5842	-38.4490
   110.0	    3692	   647.2	    -3.2	    34.7	   223.9	     4.6	 72.5842	-38.4489
   111.0	    3697	   646.8	    -3.3	    34.6	   223.6	     4.7	 72.5842	-38.4488
   112.0	    3701	   646.4	    -3.3	    34.1	   223.3	     4.7	 72.5843	-38.4487
   113.0	    3704	   646.0	    -3.3	    33.5	   222.9	     4.7	 72.5843	-38.4486
   114.0	    3709	   645.6	    -3.4	    33.0	   222.5	     4.7	 72.5844	-38.4486
   115.0	    3715	   645.2	    -3.4	    33.0	   222.1	     4.7	 72.5844	-38.4485
   116.0	    3721	   644.8	    -3.4	    33.1	   221.7	     4.7	 72.5844	-38.4483
   117.0	    3725	   644.4	    -3.5	    33.3	   221.2	     4.7	 72.5845	-38.4482
   118.0	    3730	   644.0	    -3.5	    33.4	   220.8	     4.7	 72.5845	-38.4481
   119.0	    3735	   643.6	    -3.5	    33.4	   220.3	     4.7	 72.5845	-38.4480
   120.0	    3739	   643.2	    -3.5	    33.4	   219.8	     4.7	 72.5846	-38.4479
   121.0	    3745	   642.8	    -3.6	    33.4	   219.3	     4.7	 72.5846	-38.4478
   122.0	    3750	   642.5	    -3.7	    33.3	   218.7	     4.7	 72.5846	-38.4478
   123.0	    3755	   642.1	    -3.7	    33.0	   218.2	     4.7	 72.5846	-38.4477
   124.0	    3758	   641.7	    -3.7	    32.6	   217.7	     4.6	 72.5847	-38.4476
   125.0	    3763	   641.3	    -3.8	    32.1	   217.1	     4.6	 72.5847	-38.4475
   126.0	    3768	   640.9	    -3.8	    31.7	   216.6	     4.6	 72.5847	-38.4474
   127.0	    3772	   640.6	    -3.8	    31.5	   216.1	     4.6	 72.5848	-38.4473
   128.0	    3777	   640.2	    -3.8	    31.5	   215.6	     4.6	 72.5848	-38.4473
   129.0	    3781	   639.8	    -3.9	    31.6	   215.1	     4.6	 72.5848	-38.4472
   130.0	    3787	   639.4	    -3.9	    31.7	   214.6	     4.6	 72.5849	-38.4472
   131.0	    3793	   639.0	    -3.9	    31.9	   214.1	     4.6	 72.5849	-38.4471
   132.0	    3797	   638.6	    -4.0	    32.1	   213.7	     4.6	 72.5850	-38.4471
   133.0	    3803	   638.2	    -4.0	    32.3	   213.3	     4.6	 72.5850	-38.4470
   134.0	    3807	   637.8	    -4.1	    32.4	   212.9	     4.6	 72.5850	-38.4469
   135.0	    3812	   637.4	    -4.1	    32.5	   212.5	     4.6	 72.5850	-38.4468
   136.0	    3816	   637.0	    -4.2	    32.5	   212.2	     4.6	 72.5851	-38.4467
   137.0	    3820	   636.6	    -4.2	    32.4	   212.0	     4.6	 72.5851	-38.4467
   138.0	    3826	   636.2	    -4.2	    32.4	   211.7	     4.6	 72.5852	-38.4466
   139.0	    3831	   635.8	    -4.3	    32.5	   211.5	     4.6	 72.5852	-38.4465
   140.0	    3837	   635.4	    -4.3	    32.7	   211.4	     4.6	 72.5853	-38.4464
   141.0	    3842	   635.0	    -4.4	    33.2	   211.3	     4.6	 72.5853	-38.4464
   142.0	    3846	   634.6	    -4.4	    33.9	   211.2	     4.6	 72.5853	-38.4463
   143.0	    3851	   634.2	    -4.4	    35.0	   211.2	     4.7	 72.5853	-38.4462
   144.0	    3855	   633.7	    -4.5	    36.3	   211.2	     4.7	 72.5854	-38.4462
   145.0	    3862	   633.3	    -4.5	    37.3	   211.3	     4.7	 72.5854	-38.4462
   146.0	    3867	   632.8	    -4.6	    37.5	   211.4	     4.7	 72.5855	-38.4461
   147.0	    3875	   632.4	    -4.6	    36.9	   211.5	     4.8	 72.5855	-38.4460
   148.0	    3880	   631.9	    -4.6	    36.0	   211.6	     4.8	 72.5855	-38.4459
   149.0	    3886	   631.5	    -4.6	    35.3	   211.8	     4.8	 72.5855	-38.4458
   150.0	    3891	   631.0	    -4.7	    34.5	   212.0	     4.8	 72.5856	-38.4457
   151.0	    3896	   630.6	    -4.7	    33.7	   212.2	     4.9	 72.5856	-38.4457
   152.0	    3903	   630.2	    -4.7	    33.0	   212.5	     4.9	 72.5856	-38.4456
   153.0	    3908	   629.7	    -4.8	    32.5	   212.8	     5.0	 72.5857	-38.4456
   154.0	    3913	   629.4	    -4.8	    32.0	   213.1	     5.0	 72.5857	-38.4455
   155.0	    3916	   629.0	    -4.8	    31.4	   213.4	     5.0	 72.5858	-38.4454
   156.0	    3921	   628.6	    -4.8	    30.6	   213.6	     5.1	 72.5858	-38.4453
   157.0	    3926	   628.3	    -4.8	    29.8	   213.9	     5.1	 72.5859	-38.4453
   158.0	    3928	   627.9	    -4.8	    29.2	   214.2	     5.2	 72.5859	-38.4452
   159.0	    3933	   627.6	    -4.8	    29.0	   214.4	     5.2	 72.5859	-38.4451
   160.0	    3937	   627.2	    -4.9	    28.9	   214.7	     5.3	 72.5860	-38.4450
   161.0	    3942	   626.9	    -4.9	    28.8	   214.9	     5.4	 72.5860	-38.4449
   162.0	    3946	   626.5	    -4.9	    28.8	   215.1	     5.4	 72.5860	-38.4448
   163.0	    3953	   626.1	    -5.0	    28.8	   215.3	     5.5	 72.5861	-38.4447
   164.0	    3958	   625.7	    -5.0	    28.9	   215.5	     5.5	 72.5861	-38.4446
   165.0	    3963	   625.4	    -5.0	    29.1	   215.6	     5.6	 72.5862	-38.4445
   166.0	    3966	   625.0	    -5.1	    29.2	   215.6	     5.6	 72.5862	-38.4444
   167.0	    3970	   624.6	    -5.1	    29.2	   215.7	     5.7	 72.5863	-38.4443
   168.0	    3975	   624.2	    -5.1	    29.0	   215.7	     5.7	 72.5863	-38.4442
   169.0	    3981	   623.8	    -5.1	    28.7	   215.7	     5.7	 72.5863	-38.4441
   170.0	    3986	   623.4	    -5.1	    28.2	   215.7	     5.8	 72.5864	-38.4440
   171.0	    3991	   623.1	    -5.2	    27.8	   215.6	     5.8	 72.5864	-38.4439
   172.0	    3995	   622.7	    -5.2	    27.5	   215.5	     5.8	 72.5864	-38.4438
   173.0	    4001	   622.3	    -5.2	    27.4	   215.4	     5.9	 72.5865	-38.4437
   174.0	    4006	   621.9	    -5.3	    27.5	   215.3	     5.9	 72.5865	-38.4435
   175.0	    4011	   621.5	    -5.3	    27.5	   215.1	     5.9	 72.5866	-38.4434
   176.0	    4014	   621.2	    -5.4	    27.5	   214.9	     5.9	 72.5866	-38.4432
   177.0	    4018	   620.8	    -5.4	    27.4	   214.8	     5.9	 72.5867	-38.4431
   178.0	    4023	   620.4	    -5.4	    27.4	   214.6	     5.9	 72.5867	-38.4430
   179.0	    4028	   620.0	    -5.4	    27.4	   214.4	     5.9	 72.5868	-38.4429
   180.0	    4034	   619.6	    -5.5	    27.5	   214.3	     5.9	 72.5868	-38.4429
   181.0	    4040	   619.2	    -5.5	    27.6	   214.1	     5.9	 72.5869	-38.4428
   182.0	    4046	   618.8	    -5.6	    27.8	   213.9	     5.9	 72.5869	-38.4426
   183.0	    4050	   618.4	    -5.6	    27.9	   213.8	     5.9	 72.5869	-38.4425
   184.0	    4054	   618.0	    -5.6	    28.1	   213.7	     5.9	 72.5870	-38.4424
   185.0	    4059	   617.6	    -5.7	    28.2	   213.6	     5.9	 72.5870	-38.4423
   186.0	    4064	   617.2	    -5.7	    27.9	   213.6	     5.9	 72.5871	-38.4422
   187.0	    4069	   616.9	    -5.7	    27.2	   213.6	     5.9	 72.5871	-38.4422
   188.0	    4074	   616.5	    -5.7	    26.4	   213.6	     5.9	 72.5872	-38.4421
   189.0	    4078	   616.1	    -5.7	    25.8	   213.7	     5.8	 72.5872	-38.4421
   190.0	    4084	   615.7	    -5.8	    25.6	   213.8	     5.8	 72.5873	-38.4420
   191.0	    4089	   615.3	    -5.8	    25.7	   214.0	     5.8	 72.5873	-38.4419
   192.0	    4093	   615.0	    -5.9	    25.8	   214.2	     5.8	 72.5873	-38.4418
   193.0	    4098	   614.6	    -5.9	    25.8	   214.5	     5.8	 72.5874	-38.4416
   194.0	    4102	   614.2	    -5.9	    25.7	   214.8	     5.7	 72.5874	-38.4415
   195.0	    4107	   613.9	    -5.9	    25.4	   215.2	     5.7	 72.5874	-38.4414
   196.0	    4111	   613.5	    -5.9	    24.9	   215.6	     5.7	 72.5875	-38.4413
   197.0	    4116	   613.2	    -5.9	    24.5	   216.1	     5.6	 72.5876	-38.4413
   198.0	    4120	   612.8	    -6.0	    24.3	   216.6	     5.6	 72.5876	-38.4412
   199.0	    4124	   612.4	    -6.0	    24.4	   217.1	     5.6	 72.5877	-38.4411
   200.0	    4130	   612.0	    -6.1	    24.8	   217.7	     5.5	 72.5877	-38.4410
   201.0	    4134	   611.7	    -6.1	    25.4	   218.3	     5.5	 72.5877	-38.4408
   202.0	    4141	   611.3	    -6.2	    26.1	   218.9	     5.5	 72.5878	-38.4408
   203.0	    4145	   610.9	    -6.2	    26.6	   219.6	     5.4	 72.5878	-38.4407
   204.0	    4151	   610.5	    -6.2	    26.7	   220.3	     5.4	 72.5878	-38.4406
   205.0	    4156	   610.1	    -6.3	    26.5	   221.0	     5.3	 72.5878	-38.4404
   206.0	    4161	   609.7	    -6.3	    26.1	   221.6	     5.3	 72.5879	-38.4403
   207.0	    4165	   609.3	    -6.3	    25.8	   222.3	     5.2	 72.5879	-38.4402
   208.0	    4170	   608.9	    -6.4	    25.6	   223.0	     5.2	 72.5880	-38.4401
   209.0	    4176	   608.4	    -6.4	    25.5	   223.7	     5.1	 72.5880	-38.4400
   210.0	    4183	   608.0	    -6.4	    25.6	   224.3	     5.1	 72.5880	-38.4399
   211.0	    4187	   607.6	    -6.5	    25.7	   225.0	     5.0	 72.5881	-38.4398
   212.0	    4193	   607.2	    -6.6	    25.8	   225.6	     5.0	 72.5881	-38.4397
   213.0	    4197	   606.8	    -6.6	    25.9	   226.1	     5.0	 72.5881	-38.4396
   214.0	    4202	   606.4	    -6.6	    26.0	   226.7	     4.9	 72.5882	-38.4395
   215.0	    4207	   605.9	    -6.7	    26.0	   227.1	     4.9	 72.5882	-38.4394
   216.0	    4213	   605.5	    -6.7	    26.0	   227.5	     4.9	 72.5883	-38.4392
   217.0	    4218	   605.0	    -6.7	    25.9	   227.8	     4.9	 72.5883	-38.4391
   218.0	    4228	   604.6	    -6.8	    25.9	   228.1	     4.9	 72.5883	-38.4390
   219.0	    4233	   604.1	    -6.9	    25.9	   228.4	     4.9	 72.5883	-38.4388
   220.0	    4238	   603.6	    -6.9	    25.8	   228.6	     4.9	 72.5883	-38.4386
   221.0	    4244	   603.2	    -6.9	    25.8	   228.7	     4.9	 72.5883	-38.4385
   222.0	    4250	   602.7	    -7.0	    25.7	   228.8	     4.9	 72.5884	-38.4384
   223.0	    4256	   602.3	    -7.0	    25.6	   228.8	     5.0	 72.5884	-38.4383
   224.0	    4263	   601.9	    -7.1	    25.4	   228.7	     5.0	 72.5884	-38.4382
   225.0	    4269	   601.5	    -7.1	    25.3	   228.6	     5.1	 72.5884	-38.4381
   226.0	    4272	   601.1	    -7.1	    25.2	   228.5	     5.2	 72.5884	-38.4381
   227.0	    4276	   600.8	    -7.2	    24.9	   228.3	     5.3	 72.5884	-38.4381
   228.0	    4280	   600.4	    -7.2	    24.5	   228.1	     5.4	 72.5884	-38.4381
   229.0	    4283	   600.1	    -7.2	    24.2	   227.9	     5.5	 72.5885	-38.4381
   230.0	    4288	   599.7	    -7.2	    24.2	   227.8	     5.6	 72.5885	-38.4381
   231.0	    4292	   599.4	    -7.3	    24.2	   227.6	     5.7	 72.5885	-38.4380
   232.0	    4298	   599.0	    -7.3	    24.3	   227.4	     5.9	 72.5886	-38.4378
   233.0	    4305	   598.6	    -7.4	    24.4	   227.2	     6.0	 72.5886	-38.4376
   234.0	    4309	   598.3	    -7.4	    24.5	   227.1	     6.1	 72.5887	-38.4373
   235.0	    4314	   597.9	    -7.5	    24.5	   226.9	     6.2	 72.5887	-38.4371
   236.0	    4318	   597.6	    -7.5	    24.5	   226.7	     6.4	 72.5888	-38.4369
   237.0	    4321	   597.2	    -7.5	    24.6	   226.6	     6.5	 72.5889	-38.4367
   238.0	    4324	   596.9	    -7.5	    24.7	   226.4	     6.6	 72.5889	-38.4366
   239.0	    4330	   596.5	    -7.6	    24.7	   226.4	     6.7	 72.5890	-38.4364
   240.0	    4335	   596.2	    -7.6	    24.7	   226.3	     6.8	 72.5890	-38.4363
   241.0	    4339	   595.8	    -7.7	    24.5	   226.3	     6.9	 72.5890	-38.4361
   242.0	    4344	   595.4	    -7.7	    24.3	   226.3	     7.0	 72.5890	-38.4360
   243.0	    4351	   595.0	    -7.8	    24.0	   226.3	     7.1	 72.5891	-38.4359
   244.0	    4357	   594.5	    -7.8	    23.5	   226.3	     7.2	 72.5891	-38.4357
   245.0	    4363	   594.1	    -7.9	    23.0	   226.3	     7.2	 72.5892	-38.4354
   246.0	    4368	   593.7	    -7.9	    22.5	   226.4	     7.3	 72.5892	-38.4352
   247.0	    4373	   593.2	    -7.9	    22.3	   226.5	     7.3	 72.5893	-38.4350
   248.0	    4378	   592.8	    -7.9	    22.2	   226.6	     7.3	 72.5894	-38.4349
   249.0	    4385	   592.3	    -8.0	    22.3	   226.8	     7.4	 72.5894	-38.4348
   250.0	    4392	   591.9	    -8.0	    22.5	   227.0	     7.4	 72.5895	-38.4347
   251.0	    4398	   591.5	    -8.1	    22.6	   227.2	     7.4	 72.5895	-38.4346
   252.0	    4404	   591.0	    -8.1	    22.8	   227.5	     7.4	 72.5895	-38.4343
   253.0	    4410	   590.6	    -8.1	    23.2	   227.8	     7.4	 72.5895	-38.4341
   254.0	    4415	   590.3	    -8.2	    23.8	   228.1	     7.4	 72.5896	-38.4339
   255.0	    4418	   589.9	    -8.2	    24.1	   228.4	     7.4	 72.5897	-38.4337
   256.0	    4421	   589.6	    -8.2	    24.0	   228.8	     7.3	 72.5898	-38.4336
   257.0	    4424	   589.2	    -8.2	    23.6	   229.1	     7.3	 72.5898	-38.4335
   258.0	    4429	   588.8	    -8.3	    23.2	   229.5	     7.3	 72.5899	-38.4334
   259.0	    4435	   588.5	    -8.3	    23.2	   229.9	     7.3	 72.5899	-38.4333
   260.0	    4442	   588.1	    -8.4	    23.7	   230.4	     7.3	 72.5899	-38.4333
   261.0	    4448	   587.7	    -8.4	    24.4	   230.8	     7.3	 72.5899	-38.4331
